# Pulseq sequence file
# Created by MATLAB mr toolbox

[VERSION]
major 1
minor 4
revision 1

[DEFINITIONS]
AdcRasterTime 2e-06 
BlockDurationRaster 1e-05 
FOV 0.216 0.216 0.2016 
GradientRasterTime 1e-05 
Name 3dmb1_beta 
RadiofrequencyRasterTime 1e-06 
TotalDuration 20.20464 

# Format of blocks:
# NUM DUR RF  GX  GY  GZ  ADC  EXT
[BLOCKS]
    1 200000   0   0   0   0  0  1
    2 130000   1   0   0   1  0  0
    3 840   2   0   0   0  0  2
    4 116   0   2   0   3  0  0
    5 664   3   4   5   6  0  0
    6 116   0   2   0   3  0  0
    7 436   4   0   0   7  0  0
    8  18   0   0   0   8  0  0
    9  38   0   0   0   0  0  0
   10  50   0   9  10  11  0  0
   11  62   0  12  13  14  1  0
   12  62   0  15  16  17  1  0
   13  62   0  12  16  17  1  0
   14  62   0  15  16  17  1  0
   15  62   0  12  16  17  1  0
   16  62   0  15  16  17  1  0
   17  62   0  12  16  17  1  0
   18  62   0  15  16  17  1  0
   19  62   0  12  16  17  1  0
   20  62   0  15  16  17  1  0
   21  62   0  12  16  17  1  0
   22  62   0  15  16  17  1  0
   23  62   0  12  16  17  1  0
   24  62   0  15  16  17  1  0
   25  62   0  12  16  17  1  0
   26  62   0  15  16  17  1  0
   27  62   0  12  16  17  1  0
   28  62   0  15  16  17  1  0
   29  62   0  12  16  17  1  0
   30  62   0  15  16  17  1  0
   31  62   0  12  16  17  1  0
   32  62   0  15  16  17  1  0
   33  62   0  12  16  17  1  0
   34  62   0  15  16  17  1  0
   35  62   0  12  16  17  1  0
   36  62   0  15  16  17  1  0
   37  62   0  12  16  17  1  0
   38  62   0  15  16  17  1  0
   39  62   0  12  16  17  1  0
   40  62   0  15  16  17  1  0
   41  62   0  12  16  17  1  0
   42  62   0  15  16  17  1  0
   43  62   0  12  16  17  1  0
   44  62   0  15  16  17  1  0
   45  62   0  12  16  17  1  0
   46  62   0  15  16  17  1  0
   47  62   0  12  16  17  1  0
   48  62   0  15  16  17  1  0
   49  62   0  12  16  17  1  0
   50  62   0  15  16  17  1  0
   51  62   0  12  16  17  1  0
   52  62   0  15  16  17  1  0
   53  62   0  12  16  17  1  0
   54  62   0  15  16  17  1  0
   55  62   0  12  16  17  1  0
   56  62   0  15  16  17  1  0
   57  62   0  12  16  17  1  0
   58  62   0  15  16  17  1  0
   59  62   0  12  16  17  1  0
   60  62   0  15  16  17  1  0
   61  62   0  12  16  17  1  0
   62  62   0  15  16  17  1  0
   63  62   0  12  16  17  1  0
   64  62   0  15  16  17  1  0
   65  62   0  12  16  17  1  0
   66  62   0  15  16  17  1  0
   67  62   0  12  16  17  1  0
   68  62   0  15  16  17  1  0
   69  62   0  12  16  17  1  0
   70  62   0  15  16  17  1  0
   71  62   0  12  16  17  1  0
   72  62   0  15  16  17  1  0
   73  62   0  12  16  17  1  0
   74  62   0  15  16  17  1  0
   75  62   0  12  16  17  1  0
   76  62   0  15  16  17  1  0
   77  62   0  12  16  17  1  0
   78  62   0  15  16  17  1  0
   79  62   0  12  16  17  1  0
   80  62   0  15  16  17  1  0
   81  62   0  12  16  17  1  0
   82  62   0  15  16  17  1  0
   83  62   0  12  16  17  1  0
   84  62   0  15  16  17  1  0
   85  62   0  12  16  17  1  0
   86  62   0  15  16  17  1  0
   87  62   0  12  16  17  1  0
   88  62   0  15  16  17  1  0
   89  62   0  12  16  17  1  0
   90  62   0  15  16  17  1  0
   91  62   0  12  16  17  1  0
   92  62   0  15  16  17  1  0
   93  62   0  12  16  17  1  0
   94  62   0  15  16  17  1  0
   95  62   0  12  16  17  1  0
   96  62   0  15  16  17  1  0
   97  62   0  12  16  17  1  0
   98  62   0  15  16  17  1  0
   99  62   0  12  16  17  1  0
  100  62   0  15  18  19  1  0
  101  50   0   0   0  20  0  0
  102 116   0   2   0   3  0  0
  103  74   0   0   0   0  0  0
  104 840   5   0   0   0  0  2
  105 116   0   2   0   3  0  0
  106 664   6   4   5   6  0  0
  107 116   0   2   0   3  0  0
  108 436   7   0   0   7  0  0
  109  18   0   0   0   8  0  0
  110  38   0   0   0   0  0  0
  111  50   0   9  10  21  0  0
  112  62   0  12  13  14  2  0
  113  62   0  15  16  17  2  0
  114  62   0  12  16  17  2  0
  115  62   0  15  16  17  2  0
  116  62   0  12  16  17  2  0
  117  62   0  15  16  17  2  0
  118  62   0  12  16  17  2  0
  119  62   0  15  16  17  2  0
  120  62   0  12  16  17  2  0
  121  62   0  15  16  17  2  0
  122  62   0  12  16  17  2  0
  123  62   0  15  16  17  2  0
  124  62   0  12  16  17  2  0
  125  62   0  15  16  17  2  0
  126  62   0  12  16  17  2  0
  127  62   0  15  16  17  2  0
  128  62   0  12  16  17  2  0
  129  62   0  15  16  17  2  0
  130  62   0  12  16  17  2  0
  131  62   0  15  16  17  2  0
  132  62   0  12  16  17  2  0
  133  62   0  15  16  17  2  0
  134  62   0  12  16  17  2  0
  135  62   0  15  16  17  2  0
  136  62   0  12  16  17  2  0
  137  62   0  15  16  17  2  0
  138  62   0  12  16  17  2  0
  139  62   0  15  16  17  2  0
  140  62   0  12  16  17  2  0
  141  62   0  15  16  17  2  0
  142  62   0  12  16  17  2  0
  143  62   0  15  16  17  2  0
  144  62   0  12  16  17  2  0
  145  62   0  15  16  17  2  0
  146  62   0  12  16  17  2  0
  147  62   0  15  16  17  2  0
  148  62   0  12  16  17  2  0
  149  62   0  15  16  17  2  0
  150  62   0  12  16  17  2  0
  151  62   0  15  16  17  2  0
  152  62   0  12  16  17  2  0
  153  62   0  15  16  17  2  0
  154  62   0  12  16  17  2  0
  155  62   0  15  16  17  2  0
  156  62   0  12  16  17  2  0
  157  62   0  15  16  17  2  0
  158  62   0  12  16  17  2  0
  159  62   0  15  16  17  2  0
  160  62   0  12  16  17  2  0
  161  62   0  15  16  17  2  0
  162  62   0  12  16  17  2  0
  163  62   0  15  16  17  2  0
  164  62   0  12  16  17  2  0
  165  62   0  15  16  17  2  0
  166  62   0  12  16  17  2  0
  167  62   0  15  16  17  2  0
  168  62   0  12  16  17  2  0
  169  62   0  15  16  17  2  0
  170  62   0  12  16  17  2  0
  171  62   0  15  16  17  2  0
  172  62   0  12  16  17  2  0
  173  62   0  15  16  17  2  0
  174  62   0  12  16  17  2  0
  175  62   0  15  16  17  2  0
  176  62   0  12  16  17  2  0
  177  62   0  15  16  17  2  0
  178  62   0  12  16  17  2  0
  179  62   0  15  16  17  2  0
  180  62   0  12  16  17  2  0
  181  62   0  15  16  17  2  0
  182  62   0  12  16  17  2  0
  183  62   0  15  16  17  2  0
  184  62   0  12  16  17  2  0
  185  62   0  15  16  17  2  0
  186  62   0  12  16  17  2  0
  187  62   0  15  16  17  2  0
  188  62   0  12  16  17  2  0
  189  62   0  15  16  17  2  0
  190  62   0  12  16  17  2  0
  191  62   0  15  16  17  2  0
  192  62   0  12  16  17  2  0
  193  62   0  15  16  17  2  0
  194  62   0  12  16  17  2  0
  195  62   0  15  16  17  2  0
  196  62   0  12  16  17  2  0
  197  62   0  15  16  17  2  0
  198  62   0  12  16  17  2  0
  199  62   0  15  16  17  2  0
  200  62   0  12  16  17  2  0
  201  62   0  15  18  19  2  0
  202  50   0   0   0  22  0  0
  203 116   0   2   0   3  0  0
  204  74   0   0   0   0  0  0
  205 840   8   0   0   0  0  2
  206 116   0   2   0   3  0  0
  207 664   9   4   5   6  0  0
  208 116   0   2   0   3  0  0
  209 436  10   0   0   7  0  0
  210  18   0   0   0   8  0  0
  211  38   0   0   0   0  0  0
  212  50   0   9  10  23  0  0
  213  62   0  12  13  14  3  0
  214  62   0  15  16  17  3  0
  215  62   0  12  16  17  3  0
  216  62   0  15  16  17  3  0
  217  62   0  12  16  17  3  0
  218  62   0  15  16  17  3  0
  219  62   0  12  16  17  3  0
  220  62   0  15  16  17  3  0
  221  62   0  12  16  17  3  0
  222  62   0  15  16  17  3  0
  223  62   0  12  16  17  3  0
  224  62   0  15  16  17  3  0
  225  62   0  12  16  17  3  0
  226  62   0  15  16  17  3  0
  227  62   0  12  16  17  3  0
  228  62   0  15  16  17  3  0
  229  62   0  12  16  17  3  0
  230  62   0  15  16  17  3  0
  231  62   0  12  16  17  3  0
  232  62   0  15  16  17  3  0
  233  62   0  12  16  17  3  0
  234  62   0  15  16  17  3  0
  235  62   0  12  16  17  3  0
  236  62   0  15  16  17  3  0
  237  62   0  12  16  17  3  0
  238  62   0  15  16  17  3  0
  239  62   0  12  16  17  3  0
  240  62   0  15  16  17  3  0
  241  62   0  12  16  17  3  0
  242  62   0  15  16  17  3  0
  243  62   0  12  16  17  3  0
  244  62   0  15  16  17  3  0
  245  62   0  12  16  17  3  0
  246  62   0  15  16  17  3  0
  247  62   0  12  16  17  3  0
  248  62   0  15  16  17  3  0
  249  62   0  12  16  17  3  0
  250  62   0  15  16  17  3  0
  251  62   0  12  16  17  3  0
  252  62   0  15  16  17  3  0
  253  62   0  12  16  17  3  0
  254  62   0  15  16  17  3  0
  255  62   0  12  16  17  3  0
  256  62   0  15  16  17  3  0
  257  62   0  12  16  17  3  0
  258  62   0  15  16  17  3  0
  259  62   0  12  16  17  3  0
  260  62   0  15  16  17  3  0
  261  62   0  12  16  17  3  0
  262  62   0  15  16  17  3  0
  263  62   0  12  16  17  3  0
  264  62   0  15  16  17  3  0
  265  62   0  12  16  17  3  0
  266  62   0  15  16  17  3  0
  267  62   0  12  16  17  3  0
  268  62   0  15  16  17  3  0
  269  62   0  12  16  17  3  0
  270  62   0  15  16  17  3  0
  271  62   0  12  16  17  3  0
  272  62   0  15  16  17  3  0
  273  62   0  12  16  17  3  0
  274  62   0  15  16  17  3  0
  275  62   0  12  16  17  3  0
  276  62   0  15  16  17  3  0
  277  62   0  12  16  17  3  0
  278  62   0  15  16  17  3  0
  279  62   0  12  16  17  3  0
  280  62   0  15  16  17  3  0
  281  62   0  12  16  17  3  0
  282  62   0  15  16  17  3  0
  283  62   0  12  16  17  3  0
  284  62   0  15  16  17  3  0
  285  62   0  12  16  17  3  0
  286  62   0  15  16  17  3  0
  287  62   0  12  16  17  3  0
  288  62   0  15  16  17  3  0
  289  62   0  12  16  17  3  0
  290  62   0  15  16  17  3  0
  291  62   0  12  16  17  3  0
  292  62   0  15  16  17  3  0
  293  62   0  12  16  17  3  0
  294  62   0  15  16  17  3  0
  295  62   0  12  16  17  3  0
  296  62   0  15  16  17  3  0
  297  62   0  12  16  17  3  0
  298  62   0  15  16  17  3  0
  299  62   0  12  16  17  3  0
  300  62   0  15  16  17  3  0
  301  62   0  12  16  17  3  0
[RF]
1       851.52 1 2 3 100 0 0
2      106.599 6 7 0 100 -425 0
3      913.273 8 9 10 100 0 2.04204
4      110.937 15 16 0 100 0 2.04204
5      106.599 6 7 0 100 -425 6.12611
6      913.273 8 9 10 100 0 5.96903
7      110.937 15 16 0 100 0 5.96903
8      106.599 6 7 0 100 -425 1.5708
9      913.273 8 9 10 100 0 5.49779
10      110.937 15 16 0 100 0 5.49779
11      106.599 6 7 0 100 -425 5.18363
12      913.273 8 9 10 100 0 0.628319
13      110.937 15 16 0 100 0 0.628319
14      106.599 6 7 0 100 -425 4.39823
15      913.273 8 9 10 100 0 3.92699
16      110.937 15 16 0 100 0 3.92699
17      106.599 6 7 0 100 -425 5.49779
18      913.273 8 9 10 100 0 2.82743
19      110.937 15 16 0 100 0 2.82743
20      106.599 6 7 0 100 -425 2.19911
21      913.273 8 9 10 100 0 3.61283
22      110.937 15 16 0 100 0 3.61283
23      106.599 6 7 0 100 -425 0.785398
24      913.273 8 9 10 100 0 0
25      110.937 15 16 0 100 0 0
26      106.599 6 7 0 100 -425 1.25664
27      913.273 8 9 10 100 0 4.55531
28      110.937 15 16 0 100 0 4.55531
29      106.599 6 7 0 100 -425 3.61283
30      913.273 8 9 10 100 0 4.71239
31      110.937 15 16 0 100 0 4.71239
32      913.273 8 9 10 100 0 0.471239
33      110.937 15 16 0 100 0 0.471239
34      106.599 6 7 0 100 -425 1.41372
35      913.273 8 9 10 100 0 4.39823
36      110.937 15 16 0 100 0 4.39823
37      106.599 6 7 0 100 -425 3.14159
38      106.599 6 7 0 100 -425 0.471239
39      913.273 8 9 10 100 0 5.34071
40      110.937 15 16 0 100 0 5.34071
41      106.599 6 7 0 100 -425 5.96903
42      913.273 8 9 10 100 0 2.35619
43      110.937 15 16 0 100 0 2.35619
44      913.273 8 9 10 100 0 1.25664
45      110.937 15 16 0 100 0 1.25664
46      106.599 6 7 0 100 -425 3.76991
47      106.599 6 7 0 100 -425 2.35619
48      106.599 6 7 0 100 -425 2.82743
49      913.273 8 9 10 100 0 2.98451
50      110.937 15 16 0 100 0 2.98451
51      913.273 8 9 10 100 0 3.14159
52      110.937 15 16 0 100 0 3.14159
53      913.273 8 9 10 100 0 5.18363
54      110.937 15 16 0 100 0 5.18363
55      106.599 6 7 0 100 -425 2.98451
56      106.599 6 7 0 100 -425 4.71239
57      106.599 6 7 0 100 -425 2.04204
58      913.273 8 9 10 100 0 3.76991
59      110.937 15 16 0 100 0 3.76991
60      913.273 8 9 10 100 0 0.785398
61      110.937 15 16 0 100 0 0.785398
62      106.599 6 7 0 100 -425 5.34071
63      106.599 6 7 0 100 -425 3.92699
64      913.273 8 9 10 100 0 1.41372
65      110.937 15 16 0 100 0 1.41372
66      913.273 8 9 10 100 0 1.5708
67      110.937 15 16 0 100 0 1.5708
68      106.599 6 7 0 100 -425 4.55531
69      913.273 8 9 10 100 0 2.19911
70      110.937 15 16 0 100 0 2.19911
71      106.599 6 7 0 100 -425 0.628319
72      913.273 8 9 10 100 0 6.12611
73      110.937 15 16 0 100 0 6.12611

# Format of arbitrary gradients:
#   time_shape_id of 0 means default timing (stepping with grad_raster starting at 1/2 of grad_raster)
# id amplitude amp_shape_id time_shape_id delay
# ..      Hz/m       ..         ..          us
[GRADIENTS]
1       425760 4 5 40
4      -316615 11 12 100
5      -264901 13 12 100
6      5142.86 14 12 100
13       115741 17 18 580
14            0 19 20 600
16       115741 21 22 0
17            0 23 24 0
18       115741 25 18 0
19            0 19 20 0
105            0 26 5 40

# Format of trapezoid gradients:
# id amplitude rise flat fall delay
# ..      Hz/m   us   us   us    us
[TRAP]
 2 -1.43678e+06 580    0 580   0
 3  1.43678e+06 580    0 580   0
 7      24801.6  10 4000  10  90
 8      -552524  90    0  90   0
 9 -1.15327e+06 200    0 200   0
10 -1.04167e+06 200    0 200   0
11     -11810.3  80  340  80   0
12  1.09836e+06 200  220 200   0
15 -1.09836e+06 200  220 200   0
20      11810.3  80  340  80   0
21            0  80  340  80   0
22           -0  80  340  80   0
23     -23620.6  80  340  80   0
24      23620.6  80  340  80   0
25     -35430.8  80  340  80   0
26      35430.8  80  340  80   0
27     -47241.1  80  340  80   0
28      47241.1  80  340  80   0
29     -59051.4  80  340  80   0
30      59051.4  80  340  80   0
31     -70861.7  80  340  80   0
32      70861.7  80  340  80   0
33       -82672  80  340  80   0
34        82672  80  340  80   0
35     -94482.2  80  340  80   0
36      94482.2  80  340  80   0
37      -106293  80  340  80   0
38       106293  80  340  80   0
39      -118103  80  340  80   0
40       118103  80  340  80   0
41      -129913  80  340  80   0
42       129913  80  340  80   0
43      -141723  80  340  80   0
44       141723  80  340  80   0
45      -153534  80  340  80   0
46       153534  80  340  80   0
47      -165344  80  340  80   0
48       165344  80  340  80   0
49      -177154  80  340  80   0
50       177154  80  340  80   0
51      -188964  80  340  80   0
52       188964  80  340  80   0
53      -200775  80  340  80   0
54       200775  80  340  80   0
55      -212585  80  340  80   0
56       212585  80  340  80   0
57      -224395  80  340  80   0
58       224395  80  340  80   0
59      -236206  80  340  80   0
60       236206  80  340  80   0
61      -248016  80  340  80   0
62       248016  80  340  80   0
63      -259826  80  340  80   0
64       259826  80  340  80   0
65      -271636  80  340  80   0
66       271636  80  340  80   0
67      -283447  80  340  80   0
68       283447  80  340  80   0
69      -295257  80  340  80   0
70       295257  80  340  80   0
71      -307067  80  340  80   0
72       307067  80  340  80   0
73      -318878  80  340  80   0
74       318878  80  340  80   0
75      -330688  80  340  80   0
76       330688  80  340  80   0
77      -342498  80  340  80   0
78       342498  80  340  80   0
79      -354308  80  340  80   0
80       354308  80  340  80   0
81      -366119  80  340  80   0
82       366119  80  340  80   0
83      -377929  80  340  80   0
84       377929  80  340  80   0
85      -389739  80  340  80   0
86       389739  80  340  80   0
87      -401550  80  340  80   0
88       401550  80  340  80   0
89      -413360  80  340  80   0
90       413360  80  340  80   0
91      -425170  80  340  80   0
92       425170  80  340  80   0
93      -436980  80  340  80   0
94       436980  80  340  80   0
95      -448791  80  340  80   0
96       448791  80  340  80   0
97      -460601  80  340  80   0
98       460601  80  340  80   0
99      -472411  80  340  80   0
100       472411  80  340  80   0
101      -484221  80  340  80   0
102       484221  80  340  80   0
103      -496032  80  340  80   0
104       496032  80  340  80   0

# Format of ADC events:
# id num dwell delay freq phase
# ..  ..    ns    us   Hz   rad
[ADC]
1 108 4000 100 0 2.04204
2 108 4000 100 0 5.96903
3 108 4000 100 0 5.49779
4 108 4000 100 0 0.628319
5 108 4000 100 0 3.92699
6 108 4000 100 0 2.82743
7 108 4000 100 0 3.61283
8 108 4000 100 0 0
9 108 4000 100 0 4.55531
10 108 4000 100 0 4.71239
11 108 4000 100 0 0.471239
12 108 4000 100 0 4.39823
13 108 4000 100 0 5.34071
14 108 4000 100 0 2.35619
15 108 4000 100 0 1.25664
16 108 4000 100 0 2.98451
17 108 4000 100 0 3.14159
18 108 4000 100 0 5.18363
19 108 4000 100 0 3.76991
20 108 4000 100 0 0.785398
21 108 4000 100 0 1.41372
22 108 4000 100 0 1.5708
23 108 4000 100 0 2.19911
24 108 4000 100 0 6.12611

# Format of extension lists:
# id type ref next_id
# next_id of 0 terminates the list
# Extension list is followed by extension specifications
[EXTENSIONS]
1 1 1 0
2 1 2 0
3 1 3 0

# Extension specification for setting labels:
# id set labelstring
extension LABELSET 1
1 1 TRID
2 3 TRID
3 2 TRID

# Sequence Shapes
[SHAPES]

shape_id 1
num_samples 6800
1
0
0
332
-0.0003052
0
0
1
-0.0002441
0
-0.0003052
-0.0002442
-0.0003052
-0.0002441
-0.0005494
-0.0005493
-0.0008546
-0.0008545
-0.0013429
-0.0017091
-0.001648
-0.0025026
-0.003052
-0.0039065
-0.0049441
-0.0061039
-0.0075078
-0.0097052
-0.0119636
-0.0147104
-0.0185558
-0.0227675
-0.0280168
-0.034426
-0.0413233
-0.0496856
-0.0587805
-0.069096
-0.0791064
-0.0896051
-0.0990661
-0.1071232
-0.1129219
-0.1159739
0
0
774
0.1159739
0.1129219
0.1071232
0.0990661
0.0896051
0.0791064
0.069096
0.0587805
0.0496856
0.0413233
0.034426
0.0280168
0.0227675
0.0185558
0.0147104
0.0119636
0.0097052
0.0075078
0.0061039
0.0049441
0.0039065
0.003052
0.0025026
0.001648
0.0017091
0.0013429
0.0008545
0.0008546
0.0005493
0.0005494
0.0002441
0.0003052
0.0002442
0.0003052
0
0.0002441
0
0
1
0.0003052
0
0
667
-0.0003052
0
0
1
-0.0002441
0
-0.0003052
-0.0002442
-0.0003052
-0.0002441
-0.0005494
-0.0005493
-0.0008546
-0.0008545
-0.0013429
-0.0017091
-0.001648
-0.0025026
-0.003052
-0.0039065
-0.0049441
-0.0061039
-0.0075078
-0.0097052
-0.0119636
-0.0147104
-0.0185558
-0.0227675
-0.0280168
-0.034426
-0.0413233
-0.0496856
-0.0587805
-0.069096
-0.0791064
-0.0896051
-0.0990661
-0.1071232
-0.1129219
-0.1159739
0
0
774
0.1159739
0.1129219
0.1071232
0.0990661
0.0896051
0.0791064
0.069096
0.0587805
0.0496856
0.0413233
0.034426
0.0280168
0.0227675
0.0185558
0.0147104
0.0119636
0.0097052
0.0075078
0.0061039
0.0049441
0.0039065
0.003052
0.0025026
0.001648
0.0017091
0.0013429
0.0008545
0.0008546
0.0005493
0.0005494
0.0002441
0.0003052
0.0002442
0.0003052
0
0.0002441
0
0
1
0.0003052
0
0
667
-0.0003052
0
0
1
-0.0002441
0
-0.0003052
-0.0002442
-0.0003052
-0.0002441
-0.0005494
-0.0005493
-0.0008546
-0.0008545
-0.0013429
-0.0017091
-0.001648
-0.0025026
-0.003052
-0.0039065
-0.0049441
-0.0061039
-0.0075078
-0.0097052
-0.0119636
-0.0147104
-0.0185558
-0.0227675
-0.0280168
-0.034426
-0.0413233
-0.0496856
-0.0587805
-0.069096
-0.0791064
-0.0896051
-0.0990661
-0.1071232
-0.1129219
-0.1159739
0
0
774
0.1159739
0.1129219
0.1071232
0.0990661
0.0896051
0.0791064
0.069096
0.0587805
0.0496856
0.0413233
0.034426
0.0280168
0.0227675
0.0185558
0.0147104
0.0119636
0.0097052
0.0075078
0.0061039
0.0049441
0.0039065
0.003052
0.0025026
0.001648
0.0017091
0.0013429
0.0008545
0.0008546
0.0005493
0.0005494
0.0002441
0.0003052
0.0002442
0.0003052
0
0.0002441
0
0
1
0.0003052
0
0
667
-0.0003052
0
0
1
-0.0002441
0
-0.0003052
-0.0002442
-0.0003052
-0.0002441
-0.0005494
-0.0005493
-0.0008546
-0.0008545
-0.0013429
-0.0017091
-0.001648
-0.0025026
-0.003052
-0.0039065
-0.0049441
-0.0061039
-0.0075078
-0.0097052
-0.0119636
-0.0147104
-0.0185558
-0.0227675
-0.0280168
-0.034426
-0.0413233
-0.0496856
-0.0587805
-0.069096
-0.0791064
-0.0896051
-0.0990661
-0.1071232
-0.1129219
-0.1159739
0
0
774
0.1159739
0.1129219
0.1071232
0.0990661
0.0896051
0.0791064
0.069096
0.0587805
0.0496856
0.0413233
0.034426
0.0280168
0.0227675
0.0185558
0.0147104
0.0119636
0.0097052
0.0075078
0.0061039
0.0049441
0.0039065
0.003052
0.0025026
0.001648
0.0017091
0.0013429
0.0008545
0.0008546
0.0005493
0.0005494
0.0002441
0.0003052
0.0002442
0.0003052
0
0.0002441
0
0
1
0.0003052
0
0
332
-1
0
0
697

shape_id 2
num_samples 6800
0
0
0
3.05e-05
3.05e-05
0
3.06e-05
6.1e-05
6.1e-05
0
6.11e-05
9.15e-05
9.16e-05
9.15e-05
0.0001221
0.0001221
1
0.0001526
0.0001526
1
0.0001831
0.0001831
1
0.0002137
0.0002136
0.0002136
0
0.0002442
0.0002441
0.0002442
0.0002747
0.0002746
0.0003052
0.0002747
0.0003052
0.0003357
0.0003052
0.0003357
0.0003663
0.0003662
0.0003662
0
0.0003663
0.0003967
0.0003968
0.0003967
0.0004273
0.0004273
0
0.0004578
0.0004578
0
0.0004577
0.0004578
0.0004883
0.0004884
0.0005188
0.0005188
0
0.0005189
0.0005493
0.0005188
0.0005799
0.0005494
0.0005798
0.0006104
0.0005799
0.0006104
0.0006409
0.0006409
2
0.0006714
0.0006715
0.0007019
0.000702
0.0007019
0.0007325
0.0007324
0.0007325
0.000763
0.000763
1
0.0007935
0.0007935
0
0.000824
0.000824
1
0.0008546
0.0008545
0.0008546
0.000885
0.0008851
0.0009156
0.0009156
1
0.0009461
0.0009461
1
0.0009766
0.0009766
0
0.0010071
0.0010072
0.0010071
0.0010377
0.0010376
0.0010682
0.0010682
1
0.0010987
0.0010987
1
0.0011292
0.0011597
0.0011598
0.0011597
0.0011598
0.0011902
0.0012208
0.0012208
1
0.0012513
0.0012513
0
0.0012512
0.0012819
0.0012818
0.0013123
0.0013124
0.0013428
0.0013429
0.0013733
0.0013734
0.0013734
0
0.0014039
0.0014039
0
0.0014344
0.0014344
0
0.0014649
0.001465
0.0014649
0.0014955
0.0015259
0.001526
0.001526
0
0.0015565
0.0015565
0
0.001587
0.001587
0
0.0016175
0.0016175
0
0.0016481
0.001648
0.0016786
0.0016786
0
0.0016785
0.0017091
0.0017396
0.0017396
0
0.0017702
0.0017701
0.0018007
0.0018006
0.0018006
0
0.0018617
0.0018312
0.0018922
0.0018617
0.0019227
0.0019227
0
0.0019228
0.0019532
0.0019533
0.0019837
0.0020143
0.0020143
0
0.0020448
0.0020448
0
0.0020753
0.0020753
0
0.0021059
0.0021363
0.0021364
0.0021669
0.0021669
0
0.0021974
0.0022279
0.0022279
0
0.0022584
0.0022585
0.0022889
0.0023195
0.0023195
0
0.00235
0.0023805
0.0023805
0
0.002411
0.0024111
0.0024415
0.0024721
0.0025026
0.0025026
0
0.0025331
0.0025636
0.0025637
0.0025941
0.0026247
0.0026247
0
0.0026552
0.0026857
0.0027162
0.0027162
0
0.0027468
0.0027773
0.0028077
0.0028078
0.0028383
0.0028689
0.0028993
0.0029299
0.0029299
0
0.0029909
0.0029909
0
0.0030214
0.0030214
0
0.0030825
0.0030824
0.0031435
0.0031435
0
0.0031741
0.0032045
0.0032351
0.0032655
0.0032961
0.0032961
0
0.0033572
0.0033876
0.0033877
0.0034487
0.0034487
0
0.0035097
0.0035403
0.0035402
0.0036013
0.0036318
0.0036624
0.0036928
0.0037234
0.0037539
0.0037844
0.0038149
0.003876
0.0039065
0.003937
0.0039675
0.0039981
0.0040591
0.0040896
0.0041201
0.0041506
0.0042117
0.0042422
0.0043033
0.0043032
0.0043948
0.0043948
0
0.0044558
0.0045169
0.0045474
0.0045779
0.004639
0.0047
0.0047305
0.004761
0.0048526
0.0048831
0.0049137
0.0050051
0.0050358
0.0050662
0.0051578
0.0052188
0.0052493
0.0053104
0.0053714
0.0054325
0.005524
0.0055546
0.0056155
0.0056766
0.0057682
0.0058292
0.0058903
0.0059513
0.0060123
0.0061039
0.0061954
0.0062565
0.0063176
0.006409
0.0065007
0.0065617
0.0066837
0.0067448
0.0068364
0.0069279
0.0070195
0.007111
0.0072026
0.0073246
0.0074163
0.0075077
0.0076299
0.0077214
0.007874
0.0079656
0.0080877
0.0082097
0.0083318
0.0084844
0.0086065
0.0087285
0.0088812
0.0090338
0.0091863
0.009339
0.0094915
0.0096747
0.0098577
0.0100104
0.0101935
0.0104071
0.0105903
0.0107734
0.0110175
0.0112311
0.0114753
0.011689
0.0119331
0.0122078
0.0124824
0.0127571
-0.9869376
0.013337
0.0136727
0.0140389
0.0143441
0.0147409
0.0151377
0.0155344
0.0159922
0.0164194
0.0169383
0.0174266
0.017976
0.0185253
0.0191662
0.0198376
0.0205396
0.021272
0.0220961
0.0229812
0.0238967
0.0249344
0.0260636
0.0272843
0.0286273
0.0301227
0.0317402
0.0335714
0.0355856
0.0379357
0.0405603
0.0435818
0.0470915
0.0512116
0.0561253
0.062046
0.0694317
-0.9212598
0.0909479
0.1076421
0.131844
-0.4090521
0
0
774
0.1590673
-0.131844
0.8923275
-0.090948
-0.0787401
-0.0694012
-0.0620766
-0.0561252
-0.0511811
-0.0470915
-0.0435818
-0.0405603
-0.0379357
-0.0356162
-0.0335714
-0.0317402
-0.0300922
-0.0286272
-0.0272844
-0.0260636
-0.0249344
-0.0239272
-0.0229811
-0.0220961
-0.0212721
0.9794604
-0.0198071
-0.0191662
-0.0185558
-0.017976
-0.0174266
-0.0169077
-0.01645
-0.0159617
-0.0155344
-0.0151376
-0.0147409
-0.0143747
-0.0140084
-0.0136727
-0.0133675
-0.0130623
-0.0127266
-0.0124825
-0.0122078
-0.0119636
-0.0116889
-0.0114448
-0.0112312
-0.0110175
-0.0108039
-0.0105902
-0.0103766
-0.010224
-0.0100104
-0.0098273
-0.0096746
-0.0094916
-0.0093389
-0.0091864
-0.0090337
-0.0088812
-0.0087591
-0.0086065
-0.0084538
-0.0083624
-0.0082097
-0.0080876
-0.0079656
-0.0078435
-0.007752
-0.0076298
-0.0075078
-0.0074162
-0.0073247
-0.0072026
-0.007111
-0.0070195
-0.0069279
-0.0068363
-0.0067448
-0.0066533
-0.0065922
-0.0064701
-0.0064091
-0.006348
-0.0062565
-0.0061649
-0.0061039
-0.0060429
-0.0059513
-0.0058902
-0.0058292
-0.0057377
-0.0057071
-0.0056156
-0.0055545
-0.0054935
-0.0054325
-0.0053714
-0.0053409
-0.0052494
-0.0051883
-0.0051578
-0.0050967
-0.0050357
-0.0049747
-0.0049441
-0.0048831
-0.0048221
-0.0047916
-0.0047305
-0.0046695
-0.0046389
-0.0046084
-0.0045474
-0.0044864
-0.0044558
-0.0044254
-0.0043642
-0.0043338
-0.0042727
-0.0042422
-0.0042117
-0.0041812
-0.0041201
-0.0040896
-0.0040286
-0.0040285
-0.0039676
-0.003937
-0.0038759
-0.003876
-0.0038149
-0.003815
-0.0037539
-0.0037233
-0.0036929
-0.0036623
-0.0036013
-0.0036013
0
-0.0035708
-0.0035097
-0.0035097
0
-0.0034793
-0.0034181
-0.0034182
-0.0033877
-0.0033266
-0.0033266
0
-0.0032961
-0.0032656
-0.0032045
-0.0032351
-0.003174
-0.0031435
-0.003113
-0.003113
0
-0.0030519
-0.003052
-0.0030214
-0.0029909
-0.0029604
-0.0029604
0
-0.0028993
-0.0028994
-0.0028688
-0.0028383
0.9971617
-0.0027773
-0.0027772
-0.0027468
-0.0027467
-0.0026858
-0.0026857
-0.0026552
-0.0026552
0
-0.0026246
-0.0025942
-0.0025636
-0.0025331
-0.0025331
0
-0.0025332
-0.002472
-0.0024721
-0.0024416
-0.0024415
-0.002411
-0.0023806
-0.00235
-0.00235
1
-0.0022889
-0.002289
-0.0022889
-0.0022279
-0.0022585
-0.0021974
-0.0021974
1
-0.0021363
-0.0021364
-0.0021364
0
-0.0021058
-0.0020753
-0.0020754
-0.0020753
-0.0020143
-0.0020142
-0.0020143
-0.0019838
-0.0019838
0
-0.0019227
-0.0019532
-0.0019227
-0.0018923
-0.0018922
-0.0018616
-0.0018617
-0.0018312
-0.0018312
0
-0.0018006
-0.0018007
-0.0017701
-0.0017396
-0.0017396
1
-0.0017091
-0.0017091
0
-0.0016786
-0.0016785
-0.0016481
-0.0016175
-0.0016481
-0.001587
-0.0016175
-0.0015565
-0.001587
-0.0015565
-0.001526
-0.0015259
-0.0014955
-0.0014954
-0.0014955
-0.0014649
-0.0014344
-0.001465
-0.0014039
-0.0014344
-0.0013734
-0.0014038
-0.0013734
-0.0013429
-0.0013428
-0.0013429
-0.0013123
-0.0013124
-0.0012818
-0.0012818
1
-0.0012513
-0.0012513
0
-0.0012208
-0.0012208
0
-0.0011902
-0.0011903
-0.0011902
-0.0011598
-0.0011597
-0.0011292
-0.0011292
0
-0.0011293
-0.0010987
-0.0010987
0
-0.0010681
-0.0010682
-0.0010377
-0.0010682
-0.0010071
-0.0010377
-0.0010071
-0.0009766
-0.0010072
-0.0009461
-0.0009766
-0.0009461
-0.0009461
0
-0.0009156
-0.0009156
0
-0.000885
-0.0009156
-0.0008546
-0.000885
-0.0008546
-0.0008545
-0.000824
-0.0008241
-0.0007935
-0.0007935
2
-0.000763
-0.000763
0
-0.0007324
-0.0007325
-0.0007325
0
-0.0007019
-0.000702
-0.0006714
-0.0006714
1
-0.0006715
-0.0006409
-0.0006409
0
-0.0006104
-0.0006104
1
-0.0005798
-0.0005799
-0.0005799
0
-0.0005493
-0.0005494
-0.0005493
-0.0005188
-0.0005189
-0.0004883
-0.0004883
2
-0.0004578
-0.0004578
0
-0.0004273
-0.0004272
-0.0004273
-0.0004273
0
-0.0003967
-0.0003663
-0.0003967
-0.0003663
-0.0003662
-0.0003357
-0.0003357
1
-0.0003052
-0.0003052
1
-0.0002747
-0.0002747
0
-0.0002746
-0.0002442
-0.0002442
0
-0.0002441
-0.0002136
-0.0002137
-0.0002136
-0.0002137
-0.0001831
-0.0001526
-0.0001831
-0.0001526
-0.0001221
-0.0001526
-0.000122
-9.16e-05
-0.0001221
-9.15e-05
-6.11e-05
-9.15e-05
-6.11e-05
-3.05e-05
-6.1e-05
-3.05e-05
0
-3.06e-05
0
3.06e-05
0
3.05e-05
6.1e-05
3.05e-05
6.11e-05
9.15e-05
6.11e-05
9.15e-05
0.0001221
9.16e-05
0.000122
0.0001526
0.0001221
0.0001526
0.0001831
0.0001526
0.0001831
0.0002137
0.0002136
0.0002137
0.0002136
0.0002441
0.0002442
0.0002442
0
0.0002746
0.0002747
0.0002747
0
0.0003052
0.0003052
1
0.0003357
0.0003357
1
0.0003662
0.0003663
0.0003967
0.0003663
0.0003967
0.0004273
0.0004273
0
0.0004272
0.0004273
0.0004578
0.0004578
0
0.0004883
0.0004883
2
0.0005189
0.0005188
0.0005493
0.0005494
0.0005493
0.0005799
0.0005799
0
0.0005798
0.0006104
0.0006104
1
0.0006409
0.0006409
0
0.0006715
0.0006714
0.0006714
1
0.000702
0.0007019
0.0007325
0.0007325
0
0.0007324
0.000763
0.000763
0
0.0007935
0.0007935
2
0.0008241
0.000824
0.0008545
0.0008546
0.000885
0.0008546
0.0009156
0.000885
0.0009156
0.0009156
0
0.0009461
0.0009461
0
0.0009766
0.0009461
0.0010072
0.0009766
0.0010071
0.0010377
0.0010071
0.0010682
0.0010377
0.0010682
0.0010681
0.0010987
0.0010987
0
0.0011293
0.0011292
0.0011292
0
0.0011597
0.0011598
0.0011902
0.0011903
0.0011902
0.0012208
0.0012208
0
0.0012513
0.0012513
0
0.0012818
0.0012818
1
0.0013124
0.0013123
0.0013429
0.0013428
0.0013429
0.0013734
0.0014038
0.0013734
0.0014344
0.0014039
0.001465
0.0014344
0.0014649
0.0014955
0.0014954
0.0014955
0.0015259
0.001526
0.0015565
0.001587
0.0015565
0.0016175
0.001587
0.0016481
0.0016175
0.0016481
0.0016785
0.0016786
0.0017091
0.0017091
0
0.0017396
0.0017396
1
0.0017701
0.0018007
0.0018006
0.0018312
0.0018312
0
0.0018617
0.0018616
0.0018922
0.0018923
0.0019227
0.0019532
0.0019227
0.0019838
0.0019838
0
0.0020143
0.0020142
0.0020143
0.0020753
