# Pulseq sequence file
# Created by MATLAB mr toolbox

[VERSION]
major 1
minor 4
revision 1

[DEFINITIONS]
AdcRasterTime 2e-06 
BlockDurationRaster 1e-05 
FOV 0.216 0.216 0.2016 
GradientRasterTime 1e-05 
Name cal 
RadiofrequencyRasterTime 1e-06 
TotalDuration 4.52928 

# Format of blocks:
# NUM DUR RF  GX  GY  GZ  ADC  EXT
[BLOCKS]
   1 840   1   0   0   0  0  1
   2 116   0   1   0   2  0  0
   3 436   2   0   0   3  0  0
   4  18   0   0   0   4  0  0
   5 1154   0   0   0   0  0  0
   6  40   0   5   6   7  0  0
   7  62   0   8   9  10  0  0
   8  62   0  11  12  13  0  0
   9  62   0   8  12  13  0  0
  10  62   0  11  12  13  0  0
  11  62   0   8  12  13  0  0
  12  62   0  11  12  13  0  0
  13  62   0   8  12  13  0  0
  14  62   0  11  12  13  0  0
  15  62   0   8  12  13  0  0
  16  62   0  11  12  13  0  0
  17  62   0   8  12  13  0  0
  18  62   0  11  12  13  0  0
  19  62   0   8  12  13  0  0
  20  62   0  11  12  13  0  0
  21  62   0   8  12  13  0  0
  22  62   0  11  12  13  0  0
  23  62   0   8  12  13  0  0
  24  62   0  11  12  13  0  0
  25  62   0   8  12  13  0  0
  26  62   0  11  12  13  0  0
  27  62   0   8  12  13  0  0
  28  62   0  11  12  13  0  0
  29  62   0   8  12  13  0  0
  30  62   0  11  12  13  0  0
  31  62   0   8  12  13  0  0
  32  62   0  11  12  13  0  0
  33  62   0   8  12  13  0  0
  34  62   0  11  12  13  0  0
  35  62   0   8  12  13  0  0
  36  62   0  11  12  13  0  0
  37  62   0   8  12  13  0  0
  38  62   0  11  12  13  0  0
  39  62   0   8  12  13  0  0
  40  62   0  11  12  13  0  0
  41  62   0   8  12  13  0  0
  42  62   0  11  12  13  0  0
  43  62   0   8  12  13  0  0
  44  62   0  11  12  13  0  0
  45  62   0   8  12  13  0  0
  46  62   0  11  12  13  0  0
  47  62   0   8  12  13  0  0
  48  62   0  11  12  13  0  0
  49  62   0   8  12  13  0  0
  50  62   0  11  12  13  0  0
  51  62   0   8  12  13  0  0
  52  62   0  11  12  13  0  0
  53  62   0   8  12  13  0  0
  54  62   0  11  12  13  0  0
  55  62   0   8  12  13  0  0
  56  62   0  11  12  13  0  0
  57  62   0   8  12  13  0  0
  58  62   0  11  12  13  0  0
  59  62   0   8  12  13  0  0
  60  62   0  11  12  13  0  0
  61  62   0   8  12  13  0  0
  62  62   0  11  12  13  0  0
  63  62   0   8  12  13  0  0
  64  62   0  11  12  13  0  0
  65  62   0   8  12  13  0  0
  66  62   0  11  12  13  0  0
  67  62   0   8  12  13  0  0
  68  62   0  11  12  13  0  0
  69  62   0   8  12  13  0  0
  70  62   0  11  12  13  0  0
  71  62   0   8  12  13  0  0
  72  62   0  11  12  13  0  0
  73  62   0   8  12  13  0  0
  74  62   0  11  12  13  0  0
  75  62   0   8  12  13  0  0
  76  62   0  11  12  13  0  0
  77  62   0   8  12  13  0  0
  78  62   0  11  14  15  0  0
  79  40   0   0   0  16  0  0
  80 116   0   1   0   2  0  0
  81 864   0   0   0   0  0  0
  82 840   3   0   0   0  0  1
  83 116   0   1   0   2  0  0
  84 436   4   0   0   3  0  0
  85  18   0   0   0   4  0  0
  86 1154   0   0   0   0  0  0
  87  40   0   5   6   7  0  0
  88  62   0   8   9  10  0  0
  89  62   0  11  12  13  0  0
  90  62   0   8  12  13  0  0
  91  62   0  11  12  13  0  0
  92  62   0   8  12  13  0  0
  93  62   0  11  12  13  0  0
  94  62   0   8  12  13  0  0
  95  62   0  11  12  13  0  0
  96  62   0   8  12  13  0  0
  97  62   0  11  12  13  0  0
  98  62   0   8  12  13  0  0
  99  62   0  11  12  13  0  0
 100  62   0   8  12  13  0  0
 101  62   0  11  12  13  0  0
 102  62   0   8  12  13  0  0
 103  62   0  11  12  13  0  0
 104  62   0   8  12  13  0  0
 105  62   0  11  12  13  0  0
 106  62   0   8  12  13  0  0
 107  62   0  11  12  13  0  0
 108  62   0   8  12  13  0  0
 109  62   0  11  12  13  0  0
 110  62   0   8  12  13  0  0
 111  62   0  11  12  13  0  0
 112  62   0   8  12  13  0  0
 113  62   0  11  12  13  0  0
 114  62   0   8  12  13  0  0
 115  62   0  11  12  13  0  0
 116  62   0   8  12  13  0  0
 117  62   0  11  12  13  0  0
 118  62   0   8  12  13  0  0
 119  62   0  11  12  13  0  0
 120  62   0   8  12  13  0  0
 121  62   0  11  12  13  0  0
 122  62   0   8  12  13  0  0
 123  62   0  11  12  13  0  0
 124  62   0   8  12  13  0  0
 125  62   0  11  12  13  0  0
 126  62   0   8  12  13  0  0
 127  62   0  11  12  13  0  0
 128  62   0   8  12  13  0  0
 129  62   0  11  12  13  0  0
 130  62   0   8  12  13  0  0
 131  62   0  11  12  13  0  0
 132  62   0   8  12  13  0  0
 133  62   0  11  12  13  0  0
 134  62   0   8  12  13  0  0
 135  62   0  11  12  13  0  0
 136  62   0   8  12  13  0  0
 137  62   0  11  12  13  0  0
 138  62   0   8  12  13  0  0
 139  62   0  11  12  13  0  0
 140  62   0   8  12  13  0  0
 141  62   0  11  12  13  0  0
 142  62   0   8  12  13  0  0
 143  62   0  11  12  13  0  0
 144  62   0   8  12  13  0  0
 145  62   0  11  12  13  0  0
 146  62   0   8  12  13  0  0
 147  62   0  11  12  13  0  0
 148  62   0   8  12  13  0  0
 149  62   0  11  12  13  0  0
 150  62   0   8  12  13  0  0
 151  62   0  11  12  13  0  0
 152  62   0   8  12  13  0  0
 153  62   0  11  12  13  0  0
 154  62   0   8  12  13  0  0
 155  62   0  11  12  13  0  0
 156  62   0   8  12  13  0  0
 157  62   0  11  12  13  0  0
 158  62   0   8  12  13  0  0
 159  62   0  11  14  15  0  0
 160  40   0   0   0  16  0  0
 161 116   0   1   0   2  0  0
 162 864   0   0   0   0  0  0
 163 840   5   0   0   0  0  1
 164 116   0   1   0   2  0  0
 165 436   6   0   0   3  0  0
 166  18   0   0   0   4  0  0
 167 1154   0   0   0   0  0  0
 168  40   0   5   6  16  0  0
 169  62   0   8   9  10  0  0
 170  62   0  11  12  13  0  0
 171  62   0   8  12  13  0  0
 172  62   0  11  12  13  0  0
 173  62   0   8  12  13  0  0
 174  62   0  11  12  13  0  0
 175  62   0   8  12  13  0  0
 176  62   0  11  12  13  0  0
 177  62   0   8  12  13  0  0
 178  62   0  11  12  13  0  0
 179  62   0   8  12  13  0  0
 180  62   0  11  12  13  0  0
 181  62   0   8  12  13  0  0
 182  62   0  11  12  13  0  0
 183  62   0   8  12  13  0  0
 184  62   0  11  12  13  0  0
 185  62   0   8  12  13  0  0
 186  62   0  11  12  13  0  0
 187  62   0   8  12  13  0  0
 188  62   0  11  12  13  0  0
 189  62   0   8  12  13  0  0
 190  62   0  11  12  13  0  0
 191  62   0   8  12  13  0  0
 192  62   0  11  12  13  0  0
 193  62   0   8  12  13  0  0
 194  62   0  11  12  13  0  0
 195  62   0   8  12  13  0  0
 196  62   0  11  12  13  0  0
 197  62   0   8  12  13  0  0
 198  62   0  11  12  13  0  0
 199  62   0   8  12  13  0  0
 200  62   0  11  12  13  0  0
 201  62   0   8  12  13  0  0
 202  62   0  11  12  13  0  0
 203  62   0   8  12  13  0  0
 204  62   0  11  12  13  0  0
 205  62   0   8  12  13  0  0
 206  62   0  11  12  13  0  0
 207  62   0   8  12  13  0  0
 208  62   0  11  12  13  0  0
 209  62   0   8  12  13  0  0
 210  62   0  11  12  13  0  0
 211  62   0   8  12  13  0  0
 212  62   0  11  12  13  0  0
 213  62   0   8  12  13  0  0
 214  62   0  11  12  13  0  0
 215  62   0   8  12  13  0  0
 216  62   0  11  12  13  0  0
 217  62   0   8  12  13  0  0
 218  62   0  11  12  13  0  0
 219  62   0   8  12  13  0  0
 220  62   0  11  12  13  0  0
 221  62   0   8  12  13  0  0
 222  62   0  11  12  13  0  0
 223  62   0   8  12  13  0  0
 224  62   0  11  12  13  0  0
 225  62   0   8  12  13  0  0
 226  62   0  11  12  13  0  0
 227  62   0   8  12  13  0  0
 228  62   0  11  12  13  0  0
 229  62   0   8  12  13  0  0
 230  62   0  11  12  13  0  0
 231  62   0   8  12  13  0  0
 232  62   0  11  12  13  0  0
 233  62   0   8  12  13  0  0
 234  62   0  11  12  13  0  0
 235  62   0   8  12  13  0  0
 236  62   0  11  12  13  0  0
 237  62   0   8  12  13  0  0
 238  62   0  11  12  13  0  0
 239  62   0   8  12  13  0  0
 240  62   0  11  14  15  0  0
 241  40   0   0   0   7  0  0
 242 116   0   1   0   2  0  0
 243 864   0   0   0   0  0  0
 244 840   7   0   0   0  0  1
 245 116   0   1   0   2  0  0
 246 436   8   0   0   3  0  0
 247  18   0   0   0   4  0  0
 248 1154   0   0   0   0  0  0
 249  40   0   5   6   7  0  0
 250  62   0   8   9  10  0  0
 251  62   0  11  12  13  0  0
 252  62   0   8  12  13  0  0
 253  62   0  11  12  13  0  0
 254  62   0   8  12  13  0  0
 255  62   0  11  12  13  0  0
 256  62   0   8  12  13  0  0
 257  62   0  11  12  13  0  0
 258  62   0   8  12  13  0  0
 259  62   0  11  12  13  0  0
 260  62   0   8  12  13  0  0
 261  62   0  11  12  13  0  0
 262  62   0   8  12  13  0  0
 263  62   0  11  12  13  0  0
 264  62   0   8  12  13  0  0
 265  62   0  11  12  13  0  0
 266  62   0   8  12  13  0  0
 267  62   0  11  12  13  0  0
 268  62   0   8  12  13  0  0
 269  62   0  11  12  13  0  0
 270  62   0   8  12  13  0  0
 271  62   0  11  12  13  0  0
 272  62   0   8  12  13  0  0
 273  62   0  11  12  13  0  0
 274  62   0   8  12  13  0  0
 275  62   0  11  12  13  0  0
 276  62   0   8  12  13  0  0
 277  62   0  11  12  13  0  0
 278  62   0   8  12  13  0  0
 279  62   0  11  12  13  0  0
 280  62   0   8  12  13  0  0
 281  62   0  11  12  13  0  0
 282  62   0   8  12  13  0  0
 283  62   0  11  12  13  0  0
 284  62   0   8  12  13  0  0
 285  62   0  11  12  13  0  0
 286  62   0   8  12  13  0  0
 287  62   0  11  12  13  0  0
 288  62   0   8  12  13  0  0
 289  62   0  11  12  13  0  0
 290  62   0   8  12  13  0  0
 291  62   0  11  12  13  0  0
 292  62   0   8  12  13  0  0
 293  62   0  11  12  13  0  0
 294  62   0   8  12  13  0  0
 295  62   0  11  12  13  0  0
 296  62   0   8  12  13  0  0
 297  62   0  11  12  13  0  0
 298  62   0   8  12  13  0  0
 299  62   0  11  12  13  0  0
 300  62   0   8  12  13  0  0
 301  62   0  11  12  13  0  0
 302  62   0   8  12  13  0  0
 303  62   0  11  12  13  0  0
 304  62   0   8  12  13  0  0
 305  62   0  11  12  13  0  0
 306  62   0   8  12  13  0  0
 307  62   0  11  12  13  0  0
 308  62   0   8  12  13  0  0
 309  62   0  11  12  13  0  0
 310  62   0   8  12  13  0  0
 311  62   0  11  12  13  0  0
[RF]
1      106.599 1 2 0 100 -425 0
2      288.436 3 4 0 100 0 2.04204
3      106.599 1 2 0 100 -425 6.12611
4      288.436 3 4 0 100 0 5.96903
5      106.599 1 2 0 100 -425 1.5708
6      288.436 3 4 0 100 0 5.49779
7      106.599 1 2 0 100 -425 5.18363
8      288.436 3 4 0 100 0 0.628319
9      106.599 1 2 0 100 -425 4.39823
10      288.436 3 4 0 100 0 3.92699
11      106.599 1 2 0 100 -425 5.49779
12      288.436 3 4 0 100 0 2.82743
13      106.599 1 2 0 100 -425 2.19911
14      288.436 3 4 0 100 0 3.61283
15      106.599 1 2 0 100 -425 0.785398
16      288.436 3 4 0 100 0 0
17      106.599 1 2 0 100 -425 1.25664
18      288.436 3 4 0 100 0 4.55531
19      106.599 1 2 0 100 -425 3.61283
20      288.436 3 4 0 100 0 4.71239
21      288.436 3 4 0 100 0 0.471239
22      106.599 1 2 0 100 -425 1.41372
23      288.436 3 4 0 100 0 4.39823
24      106.599 1 2 0 100 -425 3.14159
25      106.599 1 2 0 100 -425 0.471239
26      288.436 3 4 0 100 0 5.34071
27      106.599 1 2 0 100 -425 5.96903
28      288.436 3 4 0 100 0 2.35619
29      288.436 3 4 0 100 0 1.25664
30      106.599 1 2 0 100 -425 3.76991
31      106.599 1 2 0 100 -425 2.35619
32      106.599 1 2 0 100 -425 2.82743
33      288.436 3 4 0 100 0 2.98451
34      288.436 3 4 0 100 0 3.14159
35      288.436 3 4 0 100 0 5.18363
36      106.599 1 2 0 100 -425 2.98451
37      106.599 1 2 0 100 -425 4.71239
38      106.599 1 2 0 100 -425 2.04204
39      288.436 3 4 0 100 0 3.76991
40      288.436 3 4 0 100 0 0.785398
41      106.599 1 2 0 100 -425 5.34071
42      106.599 1 2 0 100 -425 3.92699
43      288.436 3 4 0 100 0 1.41372
44      288.436 3 4 0 100 0 1.5708
45      106.599 1 2 0 100 -425 4.55531
46      288.436 3 4 0 100 0 2.19911
47      106.599 1 2 0 100 -425 0.628319
48      288.436 3 4 0 100 0 6.12611

# Format of arbitrary gradients:
#   time_shape_id of 0 means default timing (stepping with grad_raster starting at 1/2 of grad_raster)
# id amplitude amp_shape_id time_shape_id delay
# ..      Hz/m       ..         ..          us
[GRADIENTS]
9            0 5 6 580
10            0 5 7 520
12            0 8 9 0
13            0 8 10 0
14            0 5 6 0
15            0 5 7 0
19       115741 11 6 580
20       148810 11 7 520
21       115741 12 9 0
22       446429 13 10 0
23      -446429 14 10 0
24       148810 12 10 0
25       115741 15 6 0
26       148810 15 7 0

# Format of trapezoid gradients:
# id amplitude rise flat fall delay
# ..      Hz/m   us   us   us    us
[TRAP]
 1 -1.43678e+06 580    0 580   0
 2  1.43678e+06 580    0 580   0
 3      24801.6  10 4000  10  90
 4      -552524  90    0  90   0
 5 -1.15327e+06 200    0 200   0
 6           -0 140    0 140   0
 7           -0 140  120 140   0
 8  1.09836e+06 200  220 200   0
11 -1.09836e+06 200  220 200   0
16            0 140  120 140   0
17      -892857 140    0 140   0
18      -114469 140  120 140   0
27       114469 140  120 140   0
28      -343407 140  120 140   0
29       343407 140  120 140   0
30      -572344 140  120 140   0
31       572344 140  120 140   0
32      -801282 140  120 140   0
33       801282 140  120 140   0

# Format of ADC events:
# id num dwell delay freq phase
# ..  ..    ns    us   Hz   rad
[ADC]
1 108 4000 100 0 5.49779
2 108 4000 100 0 0.628319
3 108 4000 100 0 3.92699
4 108 4000 100 0 2.82743
5 108 4000 100 0 3.61283
6 108 4000 100 0 0
7 108 4000 100 0 4.55531
8 108 4000 100 0 4.71239
9 108 4000 100 0 0.471239
10 108 4000 100 0 4.39823
11 108 4000 100 0 5.34071
12 108 4000 100 0 2.35619
13 108 4000 100 0 1.25664

# Format of extension lists:
# id type ref next_id
# next_id of 0 terminates the list
# Extension list is followed by extension specifications
[EXTENSIONS]
1 1 1 0
2 1 2 0
3 1 3 0

# Extension specification for setting labels:
# id set labelstring
extension LABELSET 1
1 1 TRID
2 2 TRID
3 3 TRID

# Sequence Shapes
[SHAPES]

shape_id 1
num_samples 8040
0
0
0
0
0
0
0.0289495661
0.0868486982
0.14474783
0.202646962
0.231549966
0.23145684
0.231363714
0.231270588
0.23033071
0.22854408
0.22675745
0.22497082
0.222407779
0.219068328
0.215728876
0.212389425
0.208389603
0.20372941
0.199069218
0.194409026
0.189241539
0.183566757
0.177891975
0.172217193
0.166213979
0.159882333
0.153550687
0.147219041
0.14075069
0.134145634
0.127540578
0.120935521
0.114384786
0.107888372
0.101391958
0.0948955444
0.0886306385
0.0825972406
0.0765638427
0.0705304449
0.064880206
0.0596131262
0.0543460464
0.0490789666
0.0443067725
0.0400294642
0.0357521558
0.0314748475
0.0277720952
0.0246438989
0.0215157026
0.0183875063
0.0158655945
0.0139499673
0.0120343401
0.0101187129
0.00879741216
0.00807043784
0.00734346351
0.00661648919
0.00643192187
0.00678976154
0.00714760122
0.0075054409
0.00832038435
0.00959243157
0.0108644788
0.012136526
0.0137557629
0.0157221895
0.0176886161
0.0196550426
0.0218442911
0.0242563613
0.0266684316
0.0290805018
0.031587223
0.034188595
0.036789967
0.039391339
0.0419656408
0.0445128724
0.0470601041
0.0496073357
0.0520159478
0.0542859402
0.0565559327
0.0588259251
0.0608782278
0.0627128406
0.0645474534
0.0663820662
0.0679435198
0.0692318142
0.0705201086
0.071808403
0.0727978512
0.0734884532
0.0741790552
0.0748696573
0.075264971
0.0753649966
0.0754650221
0.0755650476
0.0753996086
0.0749687052
0.0745378018
0.0741068983
0.0734616188
0.0726019631
0.0717423074
0.0708826517
0.0698745213
0.0687179164
0.0675613115
0.0664047065
0.0651731058
0.0638665091
0.0625599125
0.0612533159
0.0599454533
0.0586363247
0.0573271962
0.0560180676
0.0547692656
0.0535807901
0.0523923146
0.0512038392
0.0501355632
0.0491874866
0.0482394101
0.0472913336
0.0465030735
0.0458746299
0.0452461862
0.0446177425
0.0441704677
0.0439043617
0.0436382558
0.0433721498
0.0432898503
0.0433913573
0.0434928643
0.0435943714
0.0438649128
0.0443044888
0.0447440647
0.0451836406
0.0457628767
0.046481773
0.0472006693
0.0479195656
0.0487380822
0.0496562191
0.0505743559
0.0514924927
0.0524641595
0.0534893561
0.0545145528
0.0555397494
0.056571148
0.0576087486
0.0586463492
0.0596839498
0.0606777747
0.0616278239
0.0625778732
0.0635279224
0.0644024194
0.0652013641
0.0660003088
0.0667992536
0.0674966469
0.0680924889
0.0686883308
0.0692841727
0.0697644403
0.0701291336
0.0704938268
0.0708585201
0.0711059599
0.0712361463
0.0713663328
0.0714965192
0.071519262
0.0714345613
0.0713498606
0.0712651598
0.0710924123
0.0708316181
0.0705708238
0.0703100296
0.0699874886
0.069603201
0.0692189135
0.0688346259
0.0684186516
0.0679709906
0.0675233296
0.0670756687
0.0666268817
0.0661769689
0.065727056
0.0652771431
0.0648478475
0.0644391691
0.0640304907
0.0636218123
0.0632620023
0.0629510608
0.0626401193
0.0623291777
0.0620839061
0.0619043044
0.0617247026
0.0615451009
0.0614402499
0.0614101495
0.0613800492
0.0613499489
0.0613957379
0.0615174161
0.0616390944
0.0617607727
0.061952103
0.0622130851
0.0624740673
0.0627350495
0.0630533028
0.0634288273
0.0638043518
0.0641798763
0.0645958698
0.0650523323
0.0655087949
0.0659652574
0.0664429673
0.0669419246
0.067440882
0.0679398393
0.0684404649
0.0689427588
0.0694450527
0.0699473467
0.0704266977
0.0708831058
0.0713395139
0.071795922
0.0722201144
0.072612091
0.0730040677
0.0733960444
0.0737460794
0.0740541728
0.0743622661
0.0746703595
0.0749319222
0.0751469543
0.0753619864
0.0755770185
0.0757460571
0.0758691023
0.0759921474
0.0761151925
0.0761973731
0.0762386892
0.0762800053
0.0763213213
0.0763305349
0.0763076459
0.076284757
0.076261868
0.0762180232
0.0761532226
0.0760884221
0.0760236215
0.0759500133
0.0758675975
0.0757851817
0.0757027658
0.0756233299
0.0755468738
0.0754704177
0.0753939616
0.075323822
0.0752599989
0.0751961758
0.0751323527
0.0750884385
0.0750644331
0.0750404278
0.0750164225
0.0750178893
0.0750448284
0.0750717675
0.0750987066
0.0751536478
0.075236591
0.0753195342
0.0754024774
0.0755129854
0.0756510583
0.0757891311
0.075927204
0.076089791
0.0762768921
0.0764639932
0.0766510943
0.0768576195
0.0770835688
0.0773095181
0.0775354674
0.0777744239
0.0780263876
0.0782783513
0.078530315
0.078788306
0.0790523241
0.0793163423
0.0795803605
0.0798435954
0.080106047
0.0803684987
0.0806309504
0.0808794022
0.0811138543
0.0813483064
0.0815827585
0.0818046
0.082013831
0.082223062
0.082432293
0.0826266828
0.0828062314
0.08298578
0.0831653287
0.0833297227
0.0834789621
0.0836282015
0.083777441
0.0839129506
0.0840347304
0.0841565102
0.0842782901
0.0843891465
0.0844890797
0.0845890129
0.084688946
0.0847816657
0.084867172
0.0849526782
0.0850381844
0.085120555
0.08519979
0.0852790249
0.0853582599
0.0854382784
0.0855190806
0.0855998828
0.085680685
0.0857655737
0.0858545489
0.0859435241
0.0860324992
0.0861203806
0.0862071683
0.086293956
0.0863807437
0.086474017
0.0865737759
0.0866735348
0.0867732937
0.0868804993
0.0869951516
0.0871098039
0.0872244561
0.0873466777
0.0874764685
0.0876062594
0.0877360502
0.0878728145
0.0880165523
0.0881602901
0.0883040279
0.0884535999
0.088609006
0.0887644121
0.0889198183
0.0890795757
0.0892436844
0.0894077931
0.0895719018
0.0897387327
0.0899082859
0.0900778391
0.0902473923
0.0904180649
0.0905898569
0.090761649
0.090933441
0.0911049083
0.091276051
0.0914471937
0.0916183363
0.0917709912
0.0919051582
0.0920393252
0.0921734922
0.0923073367
0.0924408586
0.0925743805
0.0927079024
0.0928414499
0.0929750228
0.0931085957
0.0932421686
0.0933762044
0.093510703
0.0936452017
0.0937797003
0.0939151564
0.0940515698
0.0941879832
0.0943243967
0.0944622706
0.094601605
0.0947409394
0.0948802738
0.0950215191
0.0951646753
0.0953078315
0.0954509876
0.095596385
0.0957440235
0.095891662
0.0960393006
0.0961893257
0.0963417374
0.0964941491
0.0966465608
0.0968012672
0.0969582684
0.0971152695
0.0972722707
0.0974211778
0.097561991
0.0977028042
0.0978436174
0.0979851597
0.0981274312
0.0982697027
0.0984119742
0.0985551506
0.0986992318
0.0988433131
0.0989873944
0.0991325619
0.0992788158
0.0994250697
0.0995713236
0.0997188441
0.0998676314
0.100016419
0.100165206
0.100315421
0.100467065
0.100618709
0.100770353
0.10092354
0.101078269
0.101232999
0.101387729
0.101544034
0.101701915
0.101859796
0.102017677
0.102177048
0.102337908
0.102498767
0.102659627
0.10282174
0.102985106
0.103148473
0.103311839
0.103465526
0.103609533
0.10375354
0.103897548
0.104041271
0.104184709
0.104328148
0.104471587
0.104615111
0.104758721
0.104902332
0.105045942
0.105190096
0.105334792
0.105479489
0.105624185
0.105769935
0.10591674
0.106063544
0.106210348
0.106358721
0.106508662
0.106658603
0.106808543
0.106960506
0.107114491
0.107268476
0.107422461
0.107578791
0.107737466
0.10789614
0.108054815
0.108215959
0.108379572
0.108543185
0.108706798
0.10887275
0.109041041
0.109209332
0.109377623
0.109536849
0.109687011
0.109837173
0.109987335
0.110138175
0.110289693
0.11044121
0.110592727
0.110745084
0.11089828
0.111051476
0.111204672
0.111358867
0.111514059
0.111669252
0.111824444
0.111980787
0.112138279
0.112295772
0.112453264
0.112612035
0.112772086
0.112932136
0.113092186
0.113253594
0.11341636
0.113579127
0.113741893
0.113906012
0.114071484
0.114236957
0.114402429
0.114569128
0.114737054
0.11490498
0.115072906
0.115241781
0.115411603
0.115581425
0.115751248
0.115910074
0.116057902
0.116205731
0.11635356
0.116500747
0.116647292
0.116793837
0.116940382
0.11708668
0.117232729
0.117378779
0.117524828
0.117671113
0.117817633
0.117964153
0.118110673
0.118257965
0.118406029
0.118554093
0.118702157
0.118851533
0.11900222
0.119152908
0.119303595
0.119456068
0.119610329
0.119764589
0.119918849
0.120075233
0.120233741
0.120392249
0.120550757
0.120711517
0.120874528
0.12103754
0.121200552
0.121365676
0.121532914
0.121700151
0.121867389
0.122024287
0.122170845
0.122317403
0.122463961
0.12261095
0.122758369
0.122905788
0.123053207
0.123201248
0.123349911
0.123498575
0.123647238
0.123796709
0.123946985
0.124097262
0.124247539
0.124398796
0.124551034
0.124703272
0.12485551
0.125008878
0.125163376
0.125317875
0.125472374
0.125628102
0.12578506
0.125942019
0.126098977
0.12625718
0.126416627
0.126576074
0.126735521
0.126896104
0.127057823
0.127219543
0.127381262
0.127543854
0.127707317
0.127870781
0.128034245
0.128185577
0.128324778
0.128463979
0.12860318
0.128741718
0.128879594
0.129017469
0.129155345
0.129293037
0.129430544
0.129568052
0.12970556
0.12984345
0.129981722
0.130119995
0.130258268
0.130397541
0.130537815
0.130678089
0.130818363
0.130960252
0.131103757
0.131247261
0.131390766
0.131536427
0.131684245
0.131832063
0.13197988
0.132130245
0.132283155
0.132436066
0.132588977
0.132744598
0.132902928
0.133061258
0.133219588
0.133380503
0.133544003
0.133707503
0.133871002
0.134023651
0.134165447
0.134307244
0.134449041
0.134591759
0.134735399
0.134879039
0.135022679
0.135167452
0.135313356
0.13545926
0.135605164
0.135752388
0.13590093
0.136049473
0.136198015
0.136348042
0.136499554
0.136651065
0.136802577
0.136955708
0.137110459
0.13726521
0.13741996
0.137576413
0.137734569
0.137892725
0.13805088
0.138210737
0.138372297
0.138533856
0.138695416
0.138858557
0.139023281
0.139188006
0.13935273
0.139518765
0.139686112
0.139853459
0.140020806
0.140175506
0.14031756
0.140459614
0.140601668
0.140743563
0.1408853
0.141027037
0.141168774
0.141310897
0.141453407
0.141595916
0.141738425
0.141881948
0.142026486
0.142171023
0.142315561
0.142461783
0.142609691
0.142757599
0.142905506
0.143055753
0.143208339
0.143360925
0.143513512
0.143668999
0.143827387
0.143985774
0.144144162
0.144305837
0.144470798
0.144635759
0.14480072
0.144969098
0.145140892
0.145312685
0.145484479
0.145659497
0.14583774
0.146015983
0.146194226
0.146361109
0.146516632
0.146672155
0.146827678
0.146984587
0.147142882
0.147301177
0.147459473
0.147619283
0.147780609
0.147941935
0.148103261
0.148266188
0.148430716
0.148595245
0.148759774
0.148925956
0.149093794
0.149261631
0.149429468
0.149598977
0.149770157
0.149941337
0.150112517
0.150285335
0.150459791
0.150634247
0.150808703
0.150984686
0.151162195
0.151339704
0.151517213
0.151696026
0.151876144
0.152056262
0.15223638
0.152417437
0.152599435
0.152781433
0.152963431
0.153131368
0.153285244
0.153439121
0.153592998
0.153746256
0.153898896
0.154051537
0.154204177
0.154356734
0.154509208
0.154661682
0.154814156
0.154967163
0.155120704
0.155274244
0.155427785
0.155582513
0.155738429
0.155894346
0.156050262
0.156207995
0.156367544
0.156527094
0.156686644
0.156848534
0.157012765
0.157176996
0.157341228
0.157508133
0.157677712
0.157847291
0.15801687
0.158189182
0.158364229
0.158539275
0.158714321
0.158891821
0.159071776
0.159251731
0.159431686
0.159598459
0.159752051
0.159905642
0.160059234
0.160213306
0.160367859
0.160522412
0.160676965
0.160832068
0.160987722
0.161143377
0.161299031
0.161455262
0.16161207
0.161768878
0.161925685
0.16208307
0.162241031
0.162398992
0.162556954
0.162715473
0.16287455
0.163033627
0.163192704
0.163352293
0.163512394
0.163672495
0.163832597
0.163993117
0.164154055
0.164314994
0.164475933
0.164637119
0.164798553
0.164959986
0.16512142
0.165282821
0.165444189
0.165605557
0.165766926
0.165912412
0.166042017
0.166171622
0.166301227
0.166429592
0.166556716
0.166683841
0.166810966
0.166937615
0.16706379
0.167189965
0.167316139
0.167442698
0.167569641
0.167696584
0.167823527
0.167951757
0.168081275
0.168210792
0.168340309
0.168471989
0.168605831
0.168739673
0.168873515
0.169010281
0.16914997
0.169289659
0.169429348
0.169572512
0.169719153
0.169865793
0.170012433
0.170162803
0.170316901
0.170470999
0.170625097
0.170782807
0.170944128
0.171105449
0.171266771
0.171415251
0.17155089
0.171686528
0.171822167
0.171959757
0.172099296
0.172238836
0.172378376
0.17252004
0.172663829
0.172807617
0.172951406
0.173097406
0.173245616
0.173393827
0.173542037
0.173692482
0.173845159
0.173997837
0.174150515
0.174305398
0.174462487
0.174619575
0.174776664
0.174935879
0.175097221
0.175258562
0.175419903
0.175583226
0.175748529
0.175913833
0.176079136
0.176246185
0.176414979
0.176583774
0.176752568
0.176922754
0.177094332
0.17726591
0.177437488
0.177593583
0.177734196
0.177874809
0.178015422
0.178156163
0.178297031
0.178437898
0.178578766
0.178720492
0.178863075
0.179005658
0.17914824
0.17929249
0.179438405
0.17958432
0.179730236
0.179878651
0.180029567
0.180180483
0.180331399
0.1804856
0.180643085
0.18080057
0.180958055
0.181119467
0.181284805
0.181450144
0.181615482
0.181785146
0.181959134
0.182133122
0.182307109
0.182485478
0.182668227
0.182850976
0.183033725
0.183220488
0.183411266
0.183602043
0.183792821
0.183969941
0.184133404
0.184296867
0.184460329
0.184625584
0.184792631
0.184959677
0.185126724
0.185295358
0.185465579
0.1856358
0.185806021
0.185977471
0.186150149
0.186322827
0.186495506
0.186668935
0.186843116
0.187017297
0.187191478
0.187365845
0.187540397
0.187714949
0.187889502
0.188063607
0.188237265
0.188410922
0.18858458
0.188757103
0.188928489
0.189099876
0.189271262
0.189440774
0.18960841
0.189776046
0.189943683
0.190108658
0.190270972
0.190433286
0.1905956
0.190737174
0.190858006
0.190978838
0.191099671
0.191216168
0.19132833
0.191440492
0.191552654
0.191661226
0.191766207
0.191871189
0.191976171
0.192078561
0.19217836
0.192278158
0.192377957
0.19247638
0.192573427
0.192670473
0.19276752
0.192864557
0.192961582
0.193058608
0.193155633
0.193254065
0.193353903
0.193453741
0.19355358
0.193656174
0.193761524
0.193866875
0.193972226
0.194081486
0.194194656
0.194307825
0.194420995
0.194538908
0.194661564
0.19478422
0.194906876
0.195017029
0.195114677
0.195212325
0.195309973
0.195412742
0.195520632
0.195628521
0.19573641
0.195850413
0.195970528
0.196090643
0.196210758
0.196337667
0.19647137
0.196605073
0.196738775
0.196879616
0.197027594
0.197175572
0.19732355
0.197478651
0.197640874
0.197803097
0.19796532
0.198134272
0.198309952
0.198485632
0.198661312
0.198842934
0.199030497
0.19921806
0.199405623
0.199597943
0.19979502
0.199992097
0.200189174
0.200389442
0.200592899
0.200796355
0.200999812
0.20118651
0.201356449
0.201526387
0.201696326
0.201865472
0.202033825
0.202202177
0.20237053
0.202537336
0.202702594
0.202867851
0.203033109
0.203196192
0.2033571
0.203518007
0.203678915
0.203837202
0.203992867
0.204148533
0.204304198
0.204457003
0.204606947
0.20475689
0.204906834
0.205053878
0.205198021
0.205342165
0.205486308
0.205627675
0.205766266
0.205904857
0.206043448
0.20617949
0.206312981
0.206446473
0.206579964
0.206711161
0.206840063
0.206968966
0.207097868
0.207206273
0.207294179
0.207382086
0.207469993
0.207556097
0.207640398
0.207724699
0.207809001
0.20789307
0.207976907
0.208060744
0.208144581
0.208229755
0.208316268
0.20840278
0.208489292
0.208578631
0.208670797
0.208762963
0.208855128
0.208951436
0.209051887
0.209152338
0.209252788
0.209358425
0.209469247
0.209580069
0.209690891
0.209807571
0.209930107
0.210052643
0.21017518
0.210303783
0.210438455
0.210573126
0.210707798
0.210848222
0.210994398
0.211140575
0.211286751
0.211419029
0.211537408
0.211655787
0.211774167
0.211896285
0.212022143
0.212148
0.212273858
0.212403209
0.212536054
0.212668899
0.212801744
0.212937636
0.213076576
0.213215516
0.213354455
0.21349586
0.213639728
0.213783597
0.213927465
0.214073134
0.214220602
0.214368071
0.214515539
0.214664101
0.214813756
0.214963412
0.215113067
0.215263089
0.215413476
0.215563864
0.215714252
0.215864262
0.216013896
0.216163529
0.216313163
0.216461655
0.216609005
0.216756356
0.216903706
0.217029996
0.217135224
0.217240452
0.217345681
0.21744849
0.21754888
0.21764927
0.21774966
0.217848426
0.217945569
0.218042712
0.218139854
0.218236318
0.218332103
0.218427888
0.218523673
0.218619822
0.218716337
0.218812851
0.218909365
0.21900731
0.219106687
0.219206064
0.219305441
0.219407243
0.219511469
0.219615695
0.219719921
0.21982738
0.219938072
0.220048765
0.220159457
0.220273894
0.220392076
0.220510257
0.220628439
0.220750483
0.220876388
0.221002293
0.221128198
0.22123819
0.221332269
0.221426348
0.221520426
0.221617607
0.221717889
0.221818172
0.221918454
0.222022183
0.222129358
0.222236534
0.22234371
0.222454421
0.222568668
0.222682914
0.222797161
0.222914811
0.223035863
0.223156916
0.223277969
0.223402104
0.223529321
0.223656539
0.223783757
0.223913576
0.224045996
0.224178417
0.224310838
0.224445236
0.224581611
0.224717987
0.224854362
0.224991957
0.22513077
